t,Angle
0,-27.73602681
0.01,-29.28035994
0.02,-30.88527326
0.03,-32.64744739
0.04,-34.58971474
0.05,-36.69135218
0.06,-38.89228217
0.07,-41.11613756
0.08,-43.30503824
0.09,-45.41163133
0.1,-47.39845671
0.11,-49.23786073
0.12,-50.90776328
0.13,-52.39474479
0.14,-53.68464791
0.15,-54.75168265
0.16,-55.61242787
0.17,-56.26044421
0.18,-56.67863668
0.19,-56.86702175
0.2,-56.85756393
0.21,-56.62470223
0.22,-56.18640712
0.23,-55.5967004
0.24,-54.8038499
0.25,-53.88969557
0.26,-52.81815743
0.27,-51.66642692
0.28,-50.37246941
0.29,-48.99848188
0.3,-47.54198536
0.31,-46.01022641
0.32,-44.41703245
0.33,-42.76388807
0.34,-41.0592012
0.35,-39.30998701
0.36,-37.51697015
0.37,-35.68706884
0.38,-33.82364852
0.39,-31.93372735
0.4,-30.02209099
0.41,-28.09656467
0.42,-26.1568326
0.43,-24.21898949
0.44,-22.2839025
0.45,-20.3635527
0.46,-18.47370007
0.47,-16.62767833
0.48,-14.8519383
0.49,-13.155316
0.5,-11.58137335
0.51,-10.14955435
0.52,-8.8816108
0.53,-7.79917456
0.54,-6.91103327
0.55,-6.22356277
0.56,-5.72825859
0.57,-5.42326348
0.58,-5.21568377
0.59,-5.14821965
0.6,-5.15206294
0.61,-5.19151846
0.62,-5.24875398
0.63,-5.31099087
0.64,-5.34670521
0.65,-5.36631125
0.66,-5.37431194
0.67,-5.37772915
0.68,-5.36070809
0.69,-5.3416266
0.7,-5.3334267
0.71,-5.355845
0.72,-5.36077936
0.73,-5.35576006
0.74,-5.38447963
0.75,-5.4059027
0.76,-5.44011374
0.77,-5.51144944
0.78,-5.5725572
0.79,-5.72133181
0.8,-5.84350646
0.81,-6.05207123
0.82,-6.29326994
0.83,-6.57420718
0.84,-6.90915063
0.85,-7.26561939
0.86,-7.65722893
0.87,-8.08561988
0.88,-8.53345598
0.89,-8.98495259
0.9,-9.44973147
0.91,-9.91959662
0.92,-10.35922266
0.93,-10.75710347
0.94,-11.09681482
0.95,-11.37142379
0.96,-11.56127804
0.97,-11.65249152
0.98,-11.66134417
0.99,-11.5852313
1,-11.41608932
1.01,-11.15884589
1.02,-10.82501819
1.03,-10.40126371
1.04,-9.93298726
1.05,-9.42109352
1.06,-8.88130732
1.07,-8.32681756
1.08,-7.78959958
1.09,-7.25426098
1.1,-6.75837854
1.11,-6.31512273
1.12,-5.92665695
1.13,-5.6168655
1.14,-5.3800613
1.15,-5.21941033
1.16,-5.14827987
1.17,-5.14466159
1.18,-5.20922572
1.19,-5.33340268
1.2,-5.51078033
1.21,-5.7192044
1.22,-5.94311616
1.23,-6.18579801
1.24,-6.42509923
1.25,-6.65342407
1.26,-6.87234352
1.27,-7.05026099
1.28,-7.21701135
1.29,-7.34116374
1.3,-7.42867355
1.31,-7.47727709
1.32,-7.51252014
1.33,-7.49462347
1.34,-7.48323521
1.35,-7.40331247
1.36,-7.32578016
1.37,-7.25879408
1.38,-7.20883952
1.39,-7.15682678
1.4,-7.14099071
1.41,-7.17891826
1.42,-7.25755181
1.43,-7.39117834
1.44,-7.6029116
1.45,-7.88079856
1.46,-8.2336432
1.47,-8.65945283
1.48,-9.15810715
1.49,-9.7290614
1.5,-10.37022742
1.51,-11.0867752
1.52,-11.88285241
1.53,-12.77129344
1.54,-13.76238826
1.55,-14.86831224
1.56,-16.10597056
1.57,-17.49639358
1.58,-19.04805758
1.59,-20.77163649
1.6,-22.66984855
1.61,-24.74272463
1.62,-26.97295779
1.63,-29.34119932
1.64,-31.80620196
1.65,-34.32667434
1.66,-36.88103808
1.67,-39.39328555
1.68,-41.822726
1.69,-44.18212103
1.7,-46.38918206
1.71,-48.4773291
1.72,-50.40464861
1.73,-52.17239775
1.74,-53.74822935
1.75,-55.11843154
1.76,-56.32177148
1.77,-57.27751181
1.78,-58.02947579
1.79,-58.56066441
1.8,-58.8700031
1.81,-58.95347487
1.82,-58.80514184
1.83,-58.47106006
1.84,-57.95094651
1.85,-57.25842012
1.86,-56.39409518
1.87,-55.39085162
1.88,-54.25707682
1.89,-52.99473761
1.9,-51.64144721
1.91,-50.20972547
1.92,-48.68723093
1.93,-47.10060628
1.94,-45.45633761
1.95,-43.76868304
1.96,-42.04358582
1.97,-40.28679965
1.98,-38.50114873
1.99,-36.69268385
2,-34.86576126
2.01,-33.02508732
2.02,-31.17420337
2.03,-29.32277265
2.04,-27.47486733
2.05,-25.63703165
2.06,-23.81647499
2.07,-22.0177262
2.08,-20.25578682
2.09,-18.53508749
2.1,-16.85852589
2.11,-15.24749158
2.12,-13.70918966
2.13,-12.26011586
2.14,-10.91749996
2.15,-9.69986768
2.16,-8.62347557
2.17,-7.69548702
2.18,-6.93282095
2.19,-6.33595017
2.2,-5.89344846
2.21,-5.58715792
2.22,-5.40595435
2.23,-5.32043727
2.24,-5.30541169
2.25,-5.35070056
2.26,-5.42034471
2.27,-5.5259888
2.28,-5.60253663
2.29,-5.69661024
2.3,-5.79186172
2.31,-5.87201804
2.32,-5.93463158
2.33,-5.98304995
2.34,-6.01636382
2.35,-6.04982893
2.36,-6.02169807
2.37,-5.99004132
2.38,-5.94317877
2.39,-5.88719113
2.4,-5.81571532
2.41,-5.7786658
2.42,-5.76135501
2.43,-5.76303194
2.44,-5.80412494
2.45,-5.86723026
2.46,-5.94589565
2.47,-6.0718815
2.48,-6.22490765
2.49,-6.39479966
2.5,-6.5785815
2.51,-6.78295151
2.52,-6.93402603
2.53,-7.08254102
2.54,-7.20739769
2.55,-7.29627126
2.56,-7.36027373
2.57,-7.37988753
2.58,-7.33662854
2.59,-7.30587955
2.6,-7.21359891
2.61,-7.11058038
2.62,-6.99854902
2.63,-6.875111
2.64,-6.74249126
2.65,-6.6108654
2.66,-6.47591583
2.67,-6.3449591
2.68,-6.19868633
2.69,-6.05151264
2.7,-5.88735101
2.71,-5.73183467
2.72,-5.60329796
2.73,-5.4304062
2.74,-5.2403755
2.75,-5.07184268
2.76,-4.89067118
2.77,-4.71048619
2.78,-4.5385186
2.79,-4.37421641
2.8,-4.22553031
2.81,-4.09625015
2.82,-3.98715087
2.83,-3.90268805
2.84,-3.83378277
2.85,-3.78705138
2.86,-3.76727556
2.87,-3.78682931
2.88,-3.79362523
2.89,-3.84011117
2.9,-3.86489857
2.91,-3.9555868
2.92,-4.0197061
2.93,-4.10340763
2.94,-4.21169242
2.95,-4.29902555
2.96,-4.42185162
2.97,-4.53485184
2.98,-4.68054678
2.99,-4.84142133
3,-5.02952399
3.01,-5.2409685
3.02,-5.48817386
3.03,-5.77504896
3.04,-6.12134067
3.05,-6.51091082
3.06,-6.94540909
3.07,-7.4683133
3.08,-8.08008314
3.09,-8.78659816
3.1,-9.60666431
3.11,-10.5538166
3.12,-11.64757314
3.13,-12.90754268
3.14,-14.34895326
3.15,-15.98810771
3.16,-17.8294817
3.17,-19.8700254
3.18,-22.10689478
3.19,-24.53476681
3.2,-27.10474426
3.21,-29.77834847
3.22,-32.54265178
3.23,-35.33583369
3.24,-38.07109536
3.25,-40.76337784
3.26,-43.30369733
3.27,-45.71242753
3.28,-47.92967692
3.29,-49.94115934
3.3,-51.72790454
3.31,-53.27478884
3.32,-54.5820994
3.33,-55.64254408
3.34,-56.43906111
3.35,-57.00041286
3.36,-57.31529176
3.37,-57.41845488
3.38,-57.2627385
3.39,-56.92514761
3.4,-56.39411994
3.41,-55.70170592
3.42,-54.84922384
3.43,-53.85773185
3.44,-52.74616932
3.45,-51.53549921
3.46,-50.23094847
3.47,-48.85124674
3.48,-47.40638609
3.49,-45.90666479
3.5,-44.35926116
3.51,-42.77099051
3.52,-41.1468674
3.53,-39.49183911
3.54,-37.8089071
3.55,-36.10084721
3.56,-34.38001827
3.57,-32.64403046
3.58,-30.89947354
3.59,-29.15342893
3.6,-27.40651016
3.61,-25.6697011
3.62,-23.94600837
3.63,-22.24184423
3.64,-20.56797625
3.65,-18.92161041
3.66,-17.31695704
3.67,-15.76155083
3.68,-14.26478091
3.69,-12.84317428
3.7,-11.50015366
3.71,-10.26614629
3.72,-9.14397019
3.73,-8.15989041
3.74,-7.32417549
3.75,-6.6363803
3.76,-6.11461617
3.77,-5.73032664
3.78,-5.48040065
3.79,-5.33607901
3.8,-5.25746388
3.81,-5.25124114
3.82,-5.27402718
3.83,-5.30991894
3.84,-5.33574762
3.85,-5.35079244
3.86,-5.35018407
3.87,-5.3379323
3.88,-5.32292078
3.89,-5.31455052
3.9,-5.32219073
3.91,-5.30931299
3.92,-5.3533801
3.93,-5.37241953
3.94,-5.4416518
3.95,-5.5032597
3.96,-5.57468755
3.97,-5.66023127
3.98,-5.75785268
3.99,-5.87468894
4,-6.03031323
4.01,-6.19135005
4.02,-6.38150784
4.03,-6.60179095
4.04,-6.84143592
4.05,-7.1093881
4.06,-7.39331706
4.07,-7.69148485
4.08,-7.99611775
4.09,-8.32259421
4.1,-8.60136697
4.11,-8.88846998
4.12,-9.15069481
4.13,-9.37886871
4.14,-9.58627932
4.15,-9.72104106
4.16,-9.849494
4.17,-9.90517736
4.18,-9.93227664
4.19,-9.91687695
4.2,-9.85987307
4.21,-9.77479003
4.22,-9.65641096
4.23,-9.51225021
4.24,-9.33291973
4.25,-9.14722113
4.26,-8.92290234
4.27,-8.73740235
4.28,-8.48543982
4.29,-8.26206499
4.3,-8.01439259
4.31,-7.79946185
4.32,-7.52343302
4.33,-7.23142109
4.34,-6.97764402
4.35,-6.66873707
4.36,-6.40289756
4.37,-6.11699676
4.38,-5.81569496
4.39,-5.56212143
4.4,-5.28961834
4.41,-5.05948116
4.42,-4.84249568
4.43,-4.64329624
4.44,-4.48388595
4.45,-4.35511715
4.46,-4.26000091
4.47,-4.1978268
4.48,-4.16901097
4.49,-4.16469746
4.5,-4.20640417
4.51,-4.25902641
4.52,-4.34663149
4.53,-4.45451402
4.54,-4.58225429
4.55,-4.74080972
4.56,-4.88845686
4.57,-5.07619169
4.58,-5.28051969
4.59,-5.51913433
4.6,-5.78758223
4.61,-6.10150976
4.62,-6.45978642
4.63,-6.90756067
4.64,-7.37656833
4.65,-7.96003083
4.66,-8.624613
4.67,-9.39385607
4.68,-10.28963174
4.69,-11.3198864
4.7,-12.51244964
4.71,-13.86715258
4.72,-15.41917515
4.73,-17.17395912
4.74,-19.13839919
4.75,-21.31749974
4.76,-23.71059751
4.77,-26.24350754
4.78,-28.95495848
4.79,-31.74316382
4.8,-34.5724085
4.81,-37.39884997
4.82,-40.15636115
4.83,-42.82406046
4.84,-45.35335664
4.85,-47.73778857
4.86,-49.94653129
4.87,-51.97049819
4.88,-53.78348856
4.89,-55.38197616
4.9,-56.74394816
4.91,-57.86762249
4.92,-58.73820878
4.93,-59.35558089
4.94,-59.72252455
4.95,-59.83719118
4.96,-59.72218074
4.97,-59.37169329
4.98,-58.80860072
4.99,-58.05010271
5,-57.11656129
5.01,-56.0297653
5.02,-54.79670041
5.03,-53.45026184
5.04,-52.00019372
5.05,-50.46844075
5.06,-48.85774854
5.07,-47.20346905
5.08,-45.48228347
5.09,-43.72402134
5.1,-41.93288574
5.11,-40.11423059
5.12,-38.27773449
5.13,-36.42098983
5.14,-34.55414322
5.15,-32.67850835
5.16,-30.80029
5.17,-28.92903207
5.18,-27.06633997
5.19,-25.22428481
5.2,-23.40617218
5.21,-21.62028409
5.22,-19.88136634
5.23,-18.1815524
5.24,-16.54403359
5.25,-14.97426545
5.26,-13.48072968
5.27,-12.06967118
5.28,-10.77730727
5.29,-9.59979376
5.3,-8.56459258
5.31,-7.67406223
5.32,-6.94495485
5.33,-6.37379205
5.34,-5.95548883
5.35,-5.68078165
5.36,-5.49738791
5.37,-5.39331726
5.38,-5.33334844
