t,Angle
0,-16.05795924
0.01,-15.64559315
0.02,-15.25978189
0.03,-14.86144088
0.04,-14.45704206
0.05,-14.04271936
0.06,-13.69205411
0.07,-13.38595248
0.08,-13.14714718
0.09,-12.97285165
0.1,-12.89971245
0.11,-12.86864306
0.12,-12.89094626
0.13,-12.95905232
0.14,-13.06416767
0.15,-13.20800679
0.16,-13.37883465
0.17,-13.56752176
0.18,-13.77439663
0.19,-13.97354637
0.2,-14.14979013
0.21,-14.29304371
0.22,-14.40259561
0.23,-14.48576026
0.24,-14.58308456
0.25,-14.70998109
0.26,-14.91014657
0.27,-15.20946231
0.28,-15.65602845
0.29,-16.27091136
0.3,-16.99761327
0.31,-17.82692199
0.32,-18.73193416
0.33,-19.56677992
0.34,-20.34360401
0.35,-20.98562592
0.36,-21.40851468
0.37,-21.64174363
0.38,-21.6622645
0.39,-21.48594475
0.4,-21.17044307
0.41,-20.71517378
0.42,-20.19334177
0.43,-19.60622012
0.44,-18.98133445
0.45,-18.35360447
0.46,-17.74687531
0.47,-17.13369641
0.48,-16.54126067
0.49,-15.97343997
0.5,-15.44025603
0.51,-14.94374442
0.52,-14.48696735
0.53,-14.05761553
0.54,-13.66458156
0.55,-13.30295525
0.56,-12.97219053
0.57,-12.66895754
0.58,-12.39822189
0.59,-12.13453437
0.6,-11.88668722
0.61,-11.64786173
0.62,-11.42298481
0.63,-11.18948799
0.64,-10.9607347
0.65,-10.73398117
0.66,-10.49731904
0.67,-10.25914395
0.68,-10.01905186
0.69,-9.77696004
0.7,-9.51605369
0.71,-9.26491682
0.72,-8.99214317
0.73,-8.78041754
0.74,-8.49723904
0.75,-8.24321996
0.76,-8.00664591
0.77,-7.75676002
0.78,-7.50095757
0.79,-7.23841669
0.8,-6.99644598
0.81,-6.71536087
0.82,-6.40430239
0.83,-6.10403347
0.84,-5.79791477
0.85,-5.4858454
0.86,-5.17109154
0.87,-4.86330763
0.88,-4.5592441
0.89,-4.26304779
0.9,-4.03699147
0.91,-3.8201537
0.92,-3.61261001
0.93,-3.50029858
0.94,-3.4817402
0.95,-3.55905278
0.96,-3.76852774
0.97,-4.1885771
0.98,-4.74018411
0.99,-5.53386021
1,-6.52642041
1.01,-7.83062929
1.02,-9.36679204
1.03,-11.130553
1.04,-13.12649947
1.05,-15.29146616
1.06,-17.46453092
1.07,-19.58849493
1.08,-21.52112019
1.09,-23.17743643
1.1,-24.47396939
1.11,-25.35779578
1.12,-25.81720042
1.13,-25.90210714
1.14,-25.6735504
1.15,-25.15336749
1.16,-24.43485994
1.17,-23.58743126
1.18,-22.6869019
1.19,-21.77538173
1.2,-20.88461694
1.21,-20.04116989
1.22,-19.25165396
1.23,-18.52891132
1.24,-17.86761656
1.25,-17.27032311
1.26,-16.719987
1.27,-16.23330481
1.28,-15.83800415
1.29,-15.46542617
1.3,-15.1754989
1.31,-14.95265337
1.32,-14.77010562
1.33,-14.640339
1.34,-14.54528107
1.35,-14.46543104
1.36,-14.44810159
1.37,-14.41971108
1.38,-14.40374105
1.39,-14.39040359
1.4,-14.3782756
1.41,-14.36620977
1.42,-14.36269393
1.43,-14.37330035
1.44,-14.40045825
1.45,-14.45678126
1.46,-14.55039747
1.47,-14.69138671
1.48,-14.90018628
1.49,-15.19069224
1.5,-15.56480185
1.51,-16.03281158
1.52,-16.62984246
1.53,-17.28751999
1.54,-18.00491189
1.55,-18.73540725
1.56,-19.40850613
1.57,-20.01440369
1.58,-20.50792705
1.59,-20.79615889
1.6,-20.91974661
1.61,-20.85994698
1.62,-20.65001704
1.63,-20.3162532
1.64,-19.89969178
1.65,-19.3924206
1.66,-18.88662304
1.67,-18.33498368
1.68,-17.82469571
1.69,-17.30644168
1.7,-16.80230987
1.71,-16.3375047
1.72,-15.88702105
1.73,-15.4550085
1.74,-15.05570128
1.75,-14.67816761
1.76,-14.34799307
1.77,-14.05463253
1.78,-13.7746881
1.79,-13.54029674
1.8,-13.3352885
1.81,-13.15549282
1.82,-13.00787795
1.83,-12.87117163
1.84,-12.76003007
1.85,-12.65253961
1.86,-12.55860817
1.87,-12.47319812
1.88,-12.38857497
1.89,-12.31213572
1.9,-12.22092701
1.91,-12.14840349
1.92,-12.0564032
1.93,-11.96420265
1.94,-11.85253426
1.95,-11.72856119
1.96,-11.62367435
1.97,-11.51427554
1.98,-11.36709529
1.99,-11.24318222
2,-11.09549912
2.01,-10.96631253
2.02,-10.80251163
2.03,-10.66186174
2.04,-10.48029045
2.05,-10.29806695
2.06,-10.12043043
2.07,-9.8561372
2.08,-9.60772392
2.09,-9.36103948
2.1,-9.05941995
2.11,-8.74892198
2.12,-8.44751815
2.13,-8.17654129
2.14,-7.88507394
2.15,-7.62222529
2.16,-7.45302111
2.17,-7.26789144
2.18,-7.19262071
2.19,-7.23220967
2.2,-7.39998247
2.21,-7.75313933
2.22,-8.30941909
2.23,-9.05872176
2.24,-10.1156405
2.25,-11.40755489
2.26,-12.96580742
2.27,-14.75253741
2.28,-16.71144717
2.29,-18.7520764
2.3,-20.76324726
2.31,-22.67845219
2.32,-24.32417809
2.33,-25.63859074
2.34,-26.57130059
2.35,-27.10516939
2.36,-27.2614018
2.37,-27.09037945
2.38,-26.62922714
2.39,-25.94765846
2.4,-25.10222587
2.41,-24.20743097
2.42,-23.26949486
2.43,-22.33243575
2.44,-21.43027688
2.45,-20.56883596
2.46,-19.77985623
2.47,-19.05703031
2.48,-18.40838873
2.49,-17.82388959
2.5,-17.31521764
2.51,-16.87350886
2.52,-16.49124928
2.53,-16.17873121
2.54,-15.917683
2.55,-15.7172502
2.56,-15.5548002
2.57,-15.41646922
2.58,-15.3430732
2.59,-15.31083945
2.6,-15.31340306
2.61,-15.36653274
2.62,-15.47652579
2.63,-15.64505951
2.64,-15.87770932
2.65,-16.16720922
2.66,-16.50144191
2.67,-16.86930179
2.68,-17.23701331
2.69,-17.59588529
2.7,-17.91261661
2.71,-18.16882949
2.72,-18.32912125
2.73,-18.44866284
2.74,-18.4495835
2.75,-18.34768369
2.76,-18.22149926
2.77,-18.11235718
2.78,-18.017852
2.79,-17.92969929
2.8,-18.04593331
2.81,-18.22519556
2.82,-18.54301079
2.83,-18.99670787
2.84,-19.59645632
2.85,-20.26263116
2.86,-20.93894888
2.87,-21.70360169
2.88,-22.39565532
2.89,-23.01371492
2.9,-23.53626047
2.91,-23.94244594
2.92,-24.19462866
2.93,-24.39588619
2.94,-24.46327971
2.95,-24.43850112
2.96,-24.34616123
2.97,-24.17844968
2.98,-23.99545427
2.99,-23.78674286
3,-23.5243215
3.01,-23.28216455
3.02,-23.05973696
3.03,-22.82919492
3.04,-22.60764838
3.05,-22.41935061
3.06,-22.22623081
3.07,-22.06799257
3.08,-21.92326176
3.09,-21.82145071
3.1,-21.70672155
3.11,-21.62941393
3.12,-21.56895553
3.13,-21.5377565
3.14,-21.54409388
3.15,-21.5739673
3.16,-21.62153134
3.17,-21.66392463
3.18,-21.75720228
3.19,-21.88384283
3.2,-21.98563265
3.21,-22.15521127
3.22,-22.27695975
3.23,-22.45362273
3.24,-22.6418703
3.25,-22.76798411
3.26,-22.95565745
3.27,-23.09130411
3.28,-23.26024553
3.29,-23.39439149
3.3,-23.53587387
3.31,-23.6765929
3.32,-23.80801361
3.33,-23.91266691
3.34,-24.03555893
3.35,-24.16488939
3.36,-24.28138345
3.37,-24.41166875
3.38,-24.54570861
3.39,-24.67652609
3.4,-24.83262663
3.41,-24.95503231
3.42,-25.09902094
3.43,-25.23804458
3.44,-25.37537754
3.45,-25.50649679
3.46,-25.63009854
3.47,-25.74651298
3.48,-25.8565522
3.49,-25.96056895
3.5,-26.05687559
3.51,-26.15265003
3.52,-26.24309231
3.53,-26.32068735
3.54,-26.39719563
3.55,-26.47364295
3.56,-26.53654638
3.57,-26.5931512
3.58,-26.63949167
3.59,-26.70026406
3.6,-26.72557118
3.61,-26.74149951
3.62,-26.75134966
3.63,-26.75427017
3.64,-26.74926795
3.65,-26.73753492
3.66,-26.71958911
3.67,-26.69702053
3.68,-26.66840199
3.69,-26.65214777
3.7,-26.61360539
3.71,-26.58537995
3.72,-26.55124927
3.73,-26.52163993
3.74,-26.48792007
3.75,-26.45909666
3.76,-26.42511331
3.77,-26.39368645
3.78,-26.36306433
3.79,-26.33470859
3.8,-26.3006497
3.81,-26.29141892
3.82,-26.25795917
3.83,-26.2415028
3.84,-26.22322055
3.85,-26.20639997
3.86,-26.18994378
3.87,-26.17436797
3.88,-26.15910671
3.89,-26.14630594
3.9,-26.1278272
3.91,-26.11663167
3.92,-26.09480502
3.93,-26.08442439
3.94,-26.07861802
3.95,-26.05517803
3.96,-26.03210333
3.97,-26.02858023
3.98,-26.01196853
3.99,-25.99537573
4,-25.97650125
4.01,-25.96011772
4.02,-25.94501716
4.03,-25.93502417
4.04,-25.92242499
4.05,-25.90756755
4.06,-25.89213983
4.07,-25.8799543
4.08,-25.86737397
4.09,-25.85507005
4.1,-25.84284118
4.11,-25.8321272
4.12,-25.82232184
4.13,-25.81351818
4.14,-25.806644
4.15,-25.80112444
4.16,-25.79678608
4.17,-25.79452038
4.18,-25.79174972
4.19,-25.79653824
4.2,-25.80602677
4.21,-25.82446574
4.22,-25.83921747
4.23,-25.87498431
4.24,-25.89770832
4.25,-25.93768219
4.26,-25.98621541
4.27,-26.03861903
4.28,-26.1044347
4.29,-26.16500394
4.3,-26.23029896
4.31,-26.31689356
4.32,-26.38472976
4.33,-26.42392448
4.34,-26.48409958
4.35,-26.5416723
4.36,-26.59383384
4.37,-26.62470715
4.38,-26.69858636
4.39,-26.75138997
4.4,-26.77241448
4.41,-26.81497889
4.42,-26.8170651
4.43,-26.85640649
4.44,-26.85835748
4.45,-26.86184785
4.46,-26.91672652
